f [Hz]	U [dB]
100,0;146,01640505776226
200,0;146,01658202672905
300,0;146,0167302846212
400,0;146,01715042911937
500,0;146,016897292926
600,0;146,01679181631062
700,0;146,01606867160018
800,0;146,01618118685363
900,0;146,01613372292334
1000,0;146,0157797508247
2000,0;146,0146532760617
3000,0;146,01316260621454
4000,0;146,01227911054212
5000,0;146,01126007549294
6000,0;146,00832424344895
7000,0;146,00367919797085
8000,0;145,99877505909848
