f [MHz];U [DBUV
]
18000,0;95,645024
18500,0;95,813391
19000,0;95,814932
19500,0;95,951777
20000,0;96,106177
20500,0;95,961504
21000,0;95,333552
21500,0;95,702287
22000,0;96,097218
22500,0;95,836070
23000,0;95,437667
23500,0;95,002055
24000,0;94,999619
24500,0;95,758288
25000,0;95,794285
25500,0;95,406053
26000,0;95,879364
26500,0;95,448708
